#X		#Y		#Wave		#Intensity
0.000000	0.000000	2742.567383	0.343692
0.000000	0.000000	2740.360352	0.345966
0.000000	0.000000	2738.152344	0.350178
0.000000	0.000000	2735.944336	0.357987
0.000000	0.000000	2733.735352	0.361847
0.000000	0.000000	2731.525391	0.367086
0.000000	0.000000	2729.31543	0.366269
0.000000	0.000000	2727.104492	0.370835
0.000000	0.000000	2724.892578	0.369577
0.000000	0.000000	2722.680664	0.368411
0.000000	0.000000	2720.467773	0.364296
0.000000	0.000000	2718.254883	0.361269
0.000000	0.000000	2716.040039	0.35394
0.000000	0.000000	2713.826172	0.351666
0.000000	0.000000	2711.610352	0.345332
0.000000	0.000000	2709.394531	0.350079
0.000000	0.000000	2707.177734	0.356042
0.000000	0.000000	2704.960938	0.363286
0.000000	0.000000	2702.742188	0.36712
0.000000	0.000000	2700.524414	0.36681
0.000000	0.000000	2698.304688	0.367339
0.000000	0.000000	2696.084961	0.365577
0.000000	0.000000	2693.864258	0.360747
0.000000	0.000000	2691.643555	0.359554
0.000000	0.000000	2689.421875	0.365156
0.000000	0.000000	2687.199219	0.371329
0.000000	0.000000	2684.976563	0.37905
0.000000	0.000000	2682.75293	0.381357
0.000000	0.000000	2680.52832	0.380566
0.000000	0.000000	2678.303711	0.371315
0.000000	0.000000	2676.078125	0.364394
0.000000	0.000000	2673.852539	0.364227
0.000000	0.000000	2671.625	0.362544
0.000000	0.000000	2669.398438	0.370352
0.000000	0.000000	2667.169922	0.377923
0.000000	0.000000	2664.941406	0.382966
0.000000	0.000000	2662.711914	0.382452
0.000000	0.000000	2660.481445	0.37617
0.000000	0.000000	2658.250977	0.37284
0.000000	0.000000	2656.019531	0.369745
0.000000	0.000000	2653.788086	0.36432
0.000000	0.000000	2651.555664	0.365185
0.000000	0.000000	2649.322266	0.36247
0.000000	0.000000	2647.088867	0.367418
0.000000	0.000000	2644.854492	0.374608
0.000000	0.000000	2642.619141	0.379875
0.000000	0.000000	2640.383789	0.383995
0.000000	0.000000	2638.147461	0.388648
0.000000	0.000000	2635.910156	0.389573
0.000000	0.000000	2633.671875	0.389753
0.000000	0.000000	2631.433594	0.387914
0.000000	0.000000	2629.195313	0.386407
0.000000	0.000000	2626.955078	0.381105
0.000000	0.000000	2624.71582	0.381168
0.000000	0.000000	2622.474609	0.383586
0.000000	0.000000	2620.233398	0.393129
0.000000	0.000000	2617.991211	0.395589
0.000000	0.000000	2615.748047	0.40027
0.000000	0.000000	2613.504883	0.397741
0.000000	0.000000	2611.260742	0.391509
0.000000	0.000000	2609.015625	0.381972
0.000000	0.000000	2606.770508	0.382939
0.000000	0.000000	2604.524414	0.386209
0.000000	0.000000	2602.27832	0.39511
0.000000	0.000000	2600.03125	0.398359
0.000000	0.000000	2597.783203	0.398426
0.000000	0.000000	2595.53418	0.394233
0.000000	0.000000	2593.285156	0.397143
0.000000	0.000000	2591.035156	0.391621
0.000000	0.000000	2588.785156	0.388671
0.000000	0.000000	2586.533203	0.393105
0.000000	0.000000	2584.282227	0.394944
0.000000	0.000000	2582.029297	0.396416
0.000000	0.000000	2579.776367	0.394638
0.000000	0.000000	2577.522461	0.397672
0.000000	0.000000	2575.268555	0.410363
0.000000	0.000000	2573.013672	0.410366
0.000000	0.000000	2570.757813	0.408871
0.000000	0.000000	2568.501953	0.410397
0.000000	0.000000	2566.244141	0.404855
0.000000	0.000000	2563.987305	0.395892
0.000000	0.000000	2561.728516	0.38846
0.000000	0.000000	2559.469727	0.389166
0.000000	0.000000	2557.209961	0.390543
0.000000	0.000000	2554.950195	0.392774
0.000000	0.000000	2552.689453	0.393525
0.000000	0.000000	2550.427734	0.395232
0.000000	0.000000	2548.166016	0.396891
0.000000	0.000000	2545.90332	0.397556
0.000000	0.000000	2543.639648	0.398078
0.000000	0.000000	2541.375977	0.402055
0.000000	0.000000	2539.111328	0.403262
0.000000	0.000000	2536.845703	0.403935
0.000000	0.000000	2534.580078	0.403769
0.000000	0.000000	2532.313477	0.409143
0.000000	0.000000	2530.045898	0.41463
0.000000	0.000000	2527.777344	0.42079
0.000000	0.000000	2525.508789	0.414702
0.000000	0.000000	2523.240234	0.414755
0.000000	0.000000	2520.969727	0.408729
0.000000	0.000000	2518.699219	0.405317
0.000000	0.000000	2516.428711	0.404569
0.000000	0.000000	2514.15625	0.406077
0.000000	0.000000	2511.883789	0.409677
0.000000	0.000000	2509.611328	0.41514
0.000000	0.000000	2507.336914	0.409676
0.000000	0.000000	2505.0625	0.406842
0.000000	0.000000	2502.788086	0.411634
0.000000	0.000000	2500.511719	0.42267
0.000000	0.000000	2498.235352	0.428674
0.000000	0.000000	2495.958008	0.427602
0.000000	0.000000	2493.680664	0.431385
0.000000	0.000000	2491.402344	0.430808
0.000000	0.000000	2489.123047	0.426282
0.000000	0.000000	2486.84375	0.421575
0.000000	0.000000	2484.563477	0.428419
0.000000	0.000000	2482.282227	0.432065
0.000000	0.000000	2480.000977	0.434598
0.000000	0.000000	2477.71875	0.43154
0.000000	0.000000	2475.435547	0.441245
0.000000	0.000000	2473.152344	0.43928
0.000000	0.000000	2470.868164	0.443341
0.000000	0.000000	2468.583008	0.436726
0.000000	0.000000	2466.297852	0.426965
0.000000	0.000000	2464.010742	0.423476
0.000000	0.000000	2461.724609	0.418038
0.000000	0.000000	2459.436523	0.42208
0.000000	0.000000	2457.148438	0.427878
0.000000	0.000000	2454.859375	0.42906
0.000000	0.000000	2452.570313	0.432102
0.000000	0.000000	2450.280273	0.429105
0.000000	0.000000	2447.989258	0.424151
0.000000	0.000000	2445.698242	0.429061
0.000000	0.000000	2443.40625	0.430752
0.000000	0.000000	2441.113281	0.440527
0.000000	0.000000	2438.819336	0.438155
0.000000	0.000000	2436.525391	0.436831
0.000000	0.000000	2434.230469	0.432836
0.000000	0.000000	2431.935547	0.432746
0.000000	0.000000	2429.639648	0.424537
0.000000	0.000000	2427.342773	0.421433
0.000000	0.000000	2425.044922	0.418034
0.000000	0.000000	2422.74707	0.419672
0.000000	0.000000	2420.448242	0.421895
0.000000	0.000000	2418.149414	0.425889
0.000000	0.000000	2415.849609	0.43697
0.000000	0.000000	2413.548828	0.4452
0.000000	0.000000	2411.24707	0.444612
0.000000	0.000000	2408.945313	0.448383
0.000000	0.000000	2406.642578	0.445977
0.000000	0.000000	2404.338867	0.447577
0.000000	0.000000	2402.035156	0.444095
0.000000	0.000000	2399.730469	0.440414
0.000000	0.000000	2397.425781	0.438967
0.000000	0.000000	2395.119141	0.430021
0.000000	0.000000	2392.8125	0.424432
0.000000	0.000000	2390.505859	0.422646
0.000000	0.000000	2388.197266	0.419537
0.000000	0.000000	2385.888672	0.431043
0.000000	0.000000	2383.580078	0.437169
0.000000	0.000000	2381.269531	0.440235
0.000000	0.000000	2378.958984	0.44318
0.000000	0.000000	2376.648438	0.436813
0.000000	0.000000	2374.335938	0.437537
0.000000	0.000000	2372.023438	0.43704
0.000000	0.000000	2369.708984	0.433616
0.000000	0.000000	2367.396484	0.439803
0.000000	0.000000	2365.082031	0.437222
0.000000	0.000000	2362.765625	0.433473
0.000000	0.000000	2360.449219	0.432664
0.000000	0.000000	2358.132813	0.431369
0.000000	0.000000	2355.816406	0.438851
0.000000	0.000000	2353.498047	0.44606
0.000000	0.000000	2351.179688	0.451092
0.000000	0.000000	2348.859375	0.453577
0.000000	0.000000	2346.541016	0.445016
0.000000	0.000000	2344.220703	0.440381
0.000000	0.000000	2341.898438	0.437493
0.000000	0.000000	2339.576172	0.439329
0.000000	0.000000	2337.253906	0.442753
0.000000	0.000000	2334.929688	0.448873
0.000000	0.000000	2332.607422	0.460325
0.000000	0.000000	2330.28125	0.469772
0.000000	0.000000	2327.957031	0.469773
0.000000	0.000000	2325.630859	0.472558
0.000000	0.000000	2323.304688	0.46678
0.000000	0.000000	2320.976563	0.45761
0.000000	0.000000	2318.648438	0.449692
0.000000	0.000000	2316.320313	0.448048
0.000000	0.000000	2313.990234	0.451877
0.000000	0.000000	2311.660156	0.458558
0.000000	0.000000	2309.330078	0.464416
0.000000	0.000000	2306.998047	0.467105
0.000000	0.000000	2304.666016	0.461175
0.000000	0.000000	2302.333984	0.459689
0.000000	0.000000	2300	0.458541
0.000000	0.000000	2297.666016	0.460783
0.000000	0.000000	2295.332031	0.456072
0.000000	0.000000	2292.996094	0.45571
0.000000	0.000000	2290.660156	0.458379
0.000000	0.000000	2288.324219	0.455356
0.000000	0.000000	2285.986328	0.45634
0.000000	0.000000	2283.648438	0.455314
0.000000	0.000000	2281.310547	0.454841
0.000000	0.000000	2278.970703	0.455736
0.000000	0.000000	2276.630859	0.454399
0.000000	0.000000	2274.289063	0.459221
0.000000	0.000000	2271.947266	0.461455
0.000000	0.000000	2269.605469	0.466013
0.000000	0.000000	2267.263672	0.46949
0.000000	0.000000	2264.919922	0.46772
0.000000	0.000000	2262.576172	0.466132
0.000000	0.000000	2260.230469	0.464264
0.000000	0.000000	2257.884766	0.465267
0.000000	0.000000	2255.539063	0.466366
0.000000	0.000000	2253.191406	0.469256
0.000000	0.000000	2250.84375	0.47564
0.000000	0.000000	2248.496094	0.477773
0.000000	0.000000	2246.146484	0.482934
0.000000	0.000000	2243.796875	0.481983
0.000000	0.000000	2241.447266	0.479978
0.000000	0.000000	2239.095703	0.478291
0.000000	0.000000	2236.744141	0.470388
0.000000	0.000000	2234.392578	0.468151
0.000000	0.000000	2232.039063	0.469452
0.000000	0.000000	2229.685547	0.468024
0.000000	0.000000	2227.332031	0.469651
0.000000	0.000000	2224.976563	0.473493
0.000000	0.000000	2222.621094	0.478072
0.000000	0.000000	2220.263672	0.47768
0.000000	0.000000	2217.90625	0.472001
0.000000	0.000000	2215.548828	0.475825
0.000000	0.000000	2213.191406	0.476658
0.000000	0.000000	2210.832031	0.47924
0.000000	0.000000	2208.472656	0.48537
0.000000	0.000000	2206.111328	0.490945
0.000000	0.000000	2203.75	0.494585
0.000000	0.000000	2201.388672	0.491106
0.000000	0.000000	2199.025391	0.483559
0.000000	0.000000	2196.662109	0.480384
0.000000	0.000000	2194.298828	0.477479
0.000000	0.000000	2191.933594	0.481802
0.000000	0.000000	2189.568359	0.487452
0.000000	0.000000	2187.203125	0.490189
0.000000	0.000000	2184.835938	0.492137
0.000000	0.000000	2182.46875	0.495172
0.000000	0.000000	2180.099609	0.495232
0.000000	0.000000	2177.732422	0.498127
0.000000	0.000000	2175.361328	0.498211
0.000000	0.000000	2172.992188	0.495099
0.000000	0.000000	2170.621094	0.490378
0.000000	0.000000	2168.25	0.488999
0.000000	0.000000	2165.876953	0.484715
0.000000	0.000000	2163.503906	0.489387
0.000000	0.000000	2161.130859	0.500088
0.000000	0.000000	2158.755859	0.505494
0.000000	0.000000	2156.380859	0.504195
0.000000	0.000000	2154.005859	0.50756
0.000000	0.000000	2151.628906	0.50689
0.000000	0.000000	2149.251953	0.507097
0.000000	0.000000	2146.875	0.49952
0.000000	0.000000	2144.496094	0.50061
0.000000	0.000000	2142.117188	0.502487
0.000000	0.000000	2139.738281	0.498014
0.000000	0.000000	2137.357422	0.497635
0.000000	0.000000	2134.976563	0.499298
0.000000	0.000000	2132.59375	0.500416
0.000000	0.000000	2130.210938	0.50344
0.000000	0.000000	2127.828125	0.505567
0.000000	0.000000	2125.443359	0.513469
0.000000	0.000000	2123.060547	0.515321
0.000000	0.000000	2120.673828	0.512351
0.000000	0.000000	2118.289063	0.514022
0.000000	0.000000	2115.902344	0.514339
0.000000	0.000000	2113.513672	0.516134
0.000000	0.000000	2111.125	0.517446
0.000000	0.000000	2108.736328	0.519695
0.000000	0.000000	2106.347656	0.521037
0.000000	0.000000	2103.957031	0.522551
0.000000	0.000000	2101.566406	0.514489
0.000000	0.000000	2099.173828	0.514789
0.000000	0.000000	2096.783203	0.511177
0.000000	0.000000	2094.388672	0.511714
0.000000	0.000000	2091.996094	0.511778
0.000000	0.000000	2089.601563	0.516952
0.000000	0.000000	2087.205078	0.522804
0.000000	0.000000	2084.810547	0.524042
0.000000	0.000000	2082.414063	0.517376
0.000000	0.000000	2080.015625	0.515897
0.000000	0.000000	2077.619141	0.509575
0.000000	0.000000	2075.21875	0.510213
0.000000	0.000000	2072.820313	0.506903
0.000000	0.000000	2070.419922	0.510918
0.000000	0.000000	2068.019531	0.513239
0.000000	0.000000	2065.617188	0.511191
0.000000	0.000000	2063.216797	0.512048
0.000000	0.000000	2060.8125	0.515111
0.000000	0.000000	2058.410156	0.516435
0.000000	0.000000	2056.005859	0.51552
0.000000	0.000000	2053.599609	0.519252
0.000000	0.000000	2051.195313	0.523128
0.000000	0.000000	2048.789063	0.523325
0.000000	0.000000	2046.380859	0.525697
0.000000	0.000000	2043.972656	0.525167
0.000000	0.000000	2041.564453	0.524271
0.000000	0.000000	2039.15625	0.522656
0.000000	0.000000	2036.746094	0.525959
0.000000	0.000000	2034.335938	0.53782
0.000000	0.000000	2031.923828	0.541133
0.000000	0.000000	2029.511719	0.543563
0.000000	0.000000	2027.099609	0.543156
0.000000	0.000000	2024.685547	0.538482
0.000000	0.000000	2022.271484	0.535893
0.000000	0.000000	2019.857422	0.532846
0.000000	0.000000	2017.441406	0.530684
0.000000	0.000000	2015.025391	0.53286
0.000000	0.000000	2012.607422	0.528297
0.000000	0.000000	2010.189453	0.523465
0.000000	0.000000	2007.771484	0.526249
0.000000	0.000000	2005.351563	0.530691
0.000000	0.000000	2002.933594	0.539597
0.000000	0.000000	2000.511719	0.539061
0.000000	0.000000	1998.089844	0.543303
0.000000	0.000000	1995.667969	0.549546
0.000000	0.000000	1993.246094	0.547716
0.000000	0.000000	1990.822266	0.542678
0.000000	0.000000	1988.398438	0.541839
0.000000	0.000000	1985.974609	0.538807
0.000000	0.000000	1983.548828	0.532305
0.000000	0.000000	1981.121094	0.52805
0.000000	0.000000	1978.695313	0.53617
0.000000	0.000000	1976.267578	0.538949
0.000000	0.000000	1973.839844	0.543807
0.000000	0.000000	1971.410156	0.543335
0.000000	0.000000	1968.980469	0.542355
0.000000	0.000000	1966.548828	0.536999
0.000000	0.000000	1964.117188	0.528129
0.000000	0.000000	1961.685547	0.534096
0.000000	0.000000	1959.253906	0.536142
0.000000	0.000000	1956.820313	0.535744
0.000000	0.000000	1954.386719	0.537443
0.000000	0.000000	1951.951172	0.538181
0.000000	0.000000	1949.515625	0.539806
0.000000	0.000000	1947.078125	0.540798
0.000000	0.000000	1944.642578	0.538981
0.000000	0.000000	1942.205078	0.542445
0.000000	0.000000	1939.765625	0.543278
0.000000	0.000000	1937.326172	0.542832
0.000000	0.000000	1934.886719	0.540684
0.000000	0.000000	1932.445313	0.544379
0.000000	0.000000	1930.003906	0.548452
0.000000	0.000000	1927.5625	0.552979
0.000000	0.000000	1925.119141	0.554379
0.000000	0.000000	1922.675781	0.554664
0.000000	0.000000	1920.232422	0.562819
0.000000	0.000000	1917.787109	0.559172
0.000000	0.000000	1915.341797	0.555262
0.000000	0.000000	1912.894531	0.557974
0.000000	0.000000	1910.447266	0.555941
0.000000	0.000000	1908	0.556168
0.000000	0.000000	1905.550781	0.558527
0.000000	0.000000	1903.101563	0.559833
0.000000	0.000000	1900.652344	0.567867
0.000000	0.000000	1898.201172	0.569385
0.000000	0.000000	1895.75	0.567916
0.000000	0.000000	1893.296875	0.572528
0.000000	0.000000	1890.84375	0.570186
0.000000	0.000000	1888.390625	0.568083
0.000000	0.000000	1885.935547	0.562317
0.000000	0.000000	1883.480469	0.558489
0.000000	0.000000	1881.025391	0.554902
0.000000	0.000000	1878.568359	0.556992
0.000000	0.000000	1876.111328	0.553963
0.000000	0.000000	1873.654297	0.558633
0.000000	0.000000	1871.195313	0.55586
0.000000	0.000000	1868.734375	0.559754
0.000000	0.000000	1866.275391	0.563475
0.000000	0.000000	1863.814453	0.56473
0.000000	0.000000	1861.351563	0.56896
0.000000	0.000000	1858.890625	0.574574
0.000000	0.000000	1856.425781	0.570364
0.000000	0.000000	1853.962891	0.5634
0.000000	0.000000	1851.498047	0.556364
0.000000	0.000000	1849.033203	0.566849
0.000000	0.000000	1846.566406	0.566813
0.000000	0.000000	1844.099609	0.559974
0.000000	0.000000	1841.632813	0.569034
0.000000	0.000000	1839.164063	0.570273
0.000000	0.000000	1836.695313	0.566098
0.000000	0.000000	1834.224609	0.562355
0.000000	0.000000	1831.753906	0.562405
0.000000	0.000000	1829.283203	0.574026
0.000000	0.000000	1826.810547	0.572164
0.000000	0.000000	1824.337891	0.564479
0.000000	0.000000	1821.865234	0.572225
0.000000	0.000000	1819.390625	0.57026
0.000000	0.000000	1816.916016	0.569619
0.000000	0.000000	1814.439453	0.570989
0.000000	0.000000	1811.962891	0.568594
0.000000	0.000000	1809.486328	0.568593
0.000000	0.000000	1807.007813	0.570896
0.000000	0.000000	1804.529297	0.575267
0.000000	0.000000	1802.050781	0.58167
0.000000	0.000000	1799.570313	0.581575
0.000000	0.000000	1797.089844	0.580062
0.000000	0.000000	1794.607422	0.582326
0.000000	0.000000	1792.125	0.575195
0.000000	0.000000	1789.642578	0.568125
0.000000	0.000000	1787.158203	0.570287
0.000000	0.000000	1784.673828	0.57071
0.000000	0.000000	1782.1875	0.564447
0.000000	0.000000	1779.703125	0.561843
0.000000	0.000000	1777.214844	0.556495
0.000000	0.000000	1774.728516	0.561705
0.000000	0.000000	1772.240234	0.562991
0.000000	0.000000	1769.75	0.566239
0.000000	0.000000	1767.259766	0.567591
0.000000	0.000000	1764.769531	0.562055
0.000000	0.000000	1762.279297	0.553196
0.000000	0.000000	1759.787109	0.555257
0.000000	0.000000	1757.294922	0.556183
0.000000	0.000000	1754.800781	0.566099
0.000000	0.000000	1752.306641	0.580359
0.000000	0.000000	1749.810547	0.591024
0.000000	0.000000	1747.314453	0.595571
0.000000	0.000000	1744.818359	0.59611
0.000000	0.000000	1742.322266	0.590872
0.000000	0.000000	1739.824219	0.582201
0.000000	0.000000	1737.324219	0.577071
0.000000	0.000000	1734.824219	0.574999
0.000000	0.000000	1732.324219	0.576326
0.000000	0.000000	1729.824219	0.57937
0.000000	0.000000	1727.322266	0.586242
0.000000	0.000000	1724.818359	0.591927
0.000000	0.000000	1722.316406	0.595637
0.000000	0.000000	1719.8125	0.598553
0.000000	0.000000	1717.306641	0.601142
0.000000	0.000000	1714.800781	0.598678
0.000000	0.000000	1712.294922	0.595878
0.000000	0.000000	1709.787109	0.586356
0.000000	0.000000	1707.279297	0.580501
0.000000	0.000000	1704.771484	0.567448
0.000000	0.000000	1702.261719	0.567561
0.000000	0.000000	1699.751953	0.576285
0.000000	0.000000	1697.240234	0.574965
0.000000	0.000000	1694.728516	0.579136
0.000000	0.000000	1692.216797	0.584842
0.000000	0.000000	1689.703125	0.578808
0.000000	0.000000	1687.189453	0.58031
0.000000	0.000000	1684.675781	0.576913
0.000000	0.000000	1682.160156	0.584595
0.000000	0.000000	1679.644531	0.594068
0.000000	0.000000	1677.126953	0.589419
0.000000	0.000000	1674.609375	0.592316
0.000000	0.000000	1672.089844	0.585152
0.000000	0.000000	1669.572266	0.576623
0.000000	0.000000	1667.050781	0.572648
0.000000	0.000000	1664.53125	0.572898
0.000000	0.000000	1662.009766	0.57878
0.000000	0.000000	1659.486328	0.580356
0.000000	0.000000	1656.962891	0.576603
0.000000	0.000000	1654.439453	0.581468
0.000000	0.000000	1651.916016	0.577642
0.000000	0.000000	1649.390625	0.57969
0.000000	0.000000	1646.863281	0.578482
0.000000	0.000000	1644.337891	0.583687
0.000000	0.000000	1641.808594	0.589785
0.000000	0.000000	1639.28125	0.590617
0.000000	0.000000	1636.751953	0.593914
0.000000	0.000000	1634.222656	0.597416
0.000000	0.000000	1631.691406	0.598293
0.000000	0.000000	1629.160156	0.588972
0.000000	0.000000	1626.626953	0.578341
0.000000	0.000000	1624.09375	0.575107
0.000000	0.000000	1621.560547	0.576717
0.000000	0.000000	1619.025391	0.58004
0.000000	0.000000	1616.490234	0.592208
0.000000	0.000000	1613.955078	0.596803
0.000000	0.000000	1611.417969	0.600036
0.000000	0.000000	1608.880859	0.591521
0.000000	0.000000	1606.341797	0.585349
0.000000	0.000000	1603.802734	0.580601
0.000000	0.000000	1601.261719	0.580286
0.000000	0.000000	1598.720703	0.580913
0.000000	0.000000	1596.179688	0.58555
0.000000	0.000000	1593.638672	0.589104
0.000000	0.000000	1591.095703	0.594226
0.000000	0.000000	1588.550781	0.596659
0.000000	0.000000	1586.005859	0.593854
0.000000	0.000000	1583.460938	0.591929
0.000000	0.000000	1580.914063	0.593094
0.000000	0.000000	1578.367188	0.58545
0.000000	0.000000	1575.820313	0.578151
0.000000	0.000000	1573.271484	0.579161
0.000000	0.000000	1570.722656	0.576794
0.000000	0.000000	1568.171875	0.573989
0.000000	0.000000	1565.621094	0.570782
0.000000	0.000000	1563.070313	0.569445
0.000000	0.000000	1560.517578	0.572195
0.000000	0.000000	1557.964844	0.571951
0.000000	0.000000	1555.410156	0.578605
0.000000	0.000000	1552.855469	0.587244
0.000000	0.000000	1550.300781	0.590859
0.000000	0.000000	1547.744141	0.592643
0.000000	0.000000	1545.1875	0.588508
0.000000	0.000000	1542.628906	0.585627
0.000000	0.000000	1540.070313	0.577354
0.000000	0.000000	1537.511719	0.568205
0.000000	0.000000	1534.951172	0.561496
0.000000	0.000000	1532.388672	0.56712
0.000000	0.000000	1529.828125	0.570047
0.000000	0.000000	1527.265625	0.574642
0.000000	0.000000	1524.701172	0.581163
0.000000	0.000000	1522.138672	0.584892
0.000000	0.000000	1519.572266	0.580941
0.000000	0.000000	1517.007813	0.576354
0.000000	0.000000	1514.441406	0.574179
0.000000	0.000000	1511.873047	0.577351
0.000000	0.000000	1509.304688	0.57447
0.000000	0.000000	1506.736328	0.581315
0.000000	0.000000	1504.166016	0.590986
0.000000	0.000000	1501.595703	0.589017
0.000000	0.000000	1499.025391	0.589665
0.000000	0.000000	1496.453125	0.586942
0.000000	0.000000	1493.880859	0.587746
0.000000	0.000000	1491.306641	0.584348
0.000000	0.000000	1488.732422	0.587705
0.000000	0.000000	1486.15625	0.593198
0.000000	0.000000	1483.582031	0.595101
0.000000	0.000000	1481.003906	0.593172
0.000000	0.000000	1478.427734	0.593612
0.000000	0.000000	1475.847656	0.588634
0.000000	0.000000	1473.269531	0.589807
0.000000	0.000000	1470.689453	0.591811
0.000000	0.000000	1468.109375	0.593308
0.000000	0.000000	1465.527344	0.586556
0.000000	0.000000	1462.945313	0.58115
0.000000	0.000000	1460.361328	0.57935
0.000000	0.000000	1457.777344	0.578732
0.000000	0.000000	1455.193359	0.57594
0.000000	0.000000	1452.607422	0.582179
0.000000	0.000000	1450.021484	0.59167
0.000000	0.000000	1447.433594	0.590679
0.000000	0.000000	1444.845703	0.590381
0.000000	0.000000	1442.257813	0.593078
0.000000	0.000000	1439.667969	0.59165
0.000000	0.000000	1437.078125	0.592794
0.000000	0.000000	1434.486328	0.588783
0.000000	0.000000	1431.894531	0.587333
0.000000	0.000000	1429.302734	0.589666
0.000000	0.000000	1426.708984	0.586674
0.000000	0.000000	1424.113281	0.582303
0.000000	0.000000	1421.519531	0.579996
0.000000	0.000000	1418.923828	0.575879
0.000000	0.000000	1416.326172	0.577113
0.000000	0.000000	1413.728516	0.571756
0.000000	0.000000	1411.130859	0.571152
0.000000	0.000000	1408.53125	0.573326
0.000000	0.000000	1405.931641	0.578765
0.000000	0.000000	1403.330078	0.577468
0.000000	0.000000	1400.728516	0.579449
0.000000	0.000000	1398.126953	0.575669
0.000000	0.000000	1395.523438	0.570378
0.000000	0.000000	1392.919922	0.564722
0.000000	0.000000	1390.314453	0.562153
0.000000	0.000000	1387.708984	0.55491
0.000000	0.000000	1385.103516	0.554981
0.000000	0.000000	1382.496094	0.558882
0.000000	0.000000	1379.886719	0.565116
0.000000	0.000000	1377.279297	0.571916
0.000000	0.000000	1374.669922	0.575646
0.000000	0.000000	1372.058594	0.584225
0.000000	0.000000	1369.447266	0.585202
0.000000	0.000000	1366.835938	0.583341
0.000000	0.000000	1364.222656	0.578429
0.000000	0.000000	1361.609375	0.577766
0.000000	0.000000	1358.994141	0.574163
0.000000	0.000000	1356.378906	0.567639
0.000000	0.000000	1353.761719	0.565074
0.000000	0.000000	1351.146484	0.566875
0.000000	0.000000	1348.527344	0.563971
0.000000	0.000000	1345.910156	0.570411
0.000000	0.000000	1343.289063	0.568777
0.000000	0.000000	1340.669922	0.574616
0.000000	0.000000	1338.048828	0.572616
0.000000	0.000000	1335.427734	0.565665
0.000000	0.000000	1332.804688	0.565273
0.000000	0.000000	1330.181641	0.562279
0.000000	0.000000	1327.556641	0.560578
0.000000	0.000000	1324.931641	0.565392
0.000000	0.000000	1322.304688	0.56789
0.000000	0.000000	1319.677734	0.571117
0.000000	0.000000	1317.050781	0.570492
0.000000	0.000000	1314.421875	0.572109
0.000000	0.000000	1311.792969	0.571649
0.000000	0.000000	1309.164063	0.564187
0.000000	0.000000	1306.533203	0.559108
0.000000	0.000000	1303.900391	0.559328
0.000000	0.000000	1301.267578	0.555584
0.000000	0.000000	1298.634766	0.552065
0.000000	0.000000	1296	0.555187
0.000000	0.000000	1293.365234	0.557281
0.000000	0.000000	1290.730469	0.555968
0.000000	0.000000	1288.09375	0.555216
0.000000	0.000000	1285.455078	0.558636
0.000000	0.000000	1282.816406	0.564442
0.000000	0.000000	1280.177734	0.561814
0.000000	0.000000	1277.539063	0.561784
0.000000	0.000000	1274.898438	0.560718
0.000000	0.000000	1272.255859	0.556681
0.000000	0.000000	1269.613281	0.550657
0.000000	0.000000	1266.970703	0.553328
0.000000	0.000000	1264.326172	0.55524
0.000000	0.000000	1261.681641	0.554975
0.000000	0.000000	1259.035156	0.554084
0.000000	0.000000	1256.388672	0.550831
0.000000	0.000000	1253.742188	0.546677
0.000000	0.000000	1251.09375	0.548212
0.000000	0.000000	1248.443359	0.547431
0.000000	0.000000	1245.794922	0.55081
0.000000	0.000000	1243.142578	0.554755
0.000000	0.000000	1240.492188	0.554702
0.000000	0.000000	1237.839844	0.555419
0.000000	0.000000	1235.185547	0.55551
0.000000	0.000000	1232.53125	0.55151
0.000000	0.000000	1229.876953	0.553802
0.000000	0.000000	1227.220703	0.550155
0.000000	0.000000	1224.564453	0.551564
0.000000	0.000000	1221.908203	0.555295
0.000000	0.000000	1219.25	0.556127
0.000000	0.000000	1216.589844	0.551235
0.000000	0.000000	1213.929688	0.550252
0.000000	0.000000	1211.269531	0.547748
0.000000	0.000000	1208.607422	0.547361
0.000000	0.000000	1205.945313	0.546494
0.000000	0.000000	1203.28125	0.55019
0.000000	0.000000	1200.617188	0.552106
0.000000	0.000000	1197.953125	0.55466
0.000000	0.000000	1195.287109	0.556345
0.000000	0.000000	1192.621094	0.556435
0.000000	0.000000	1189.953125	0.553123
0.000000	0.000000	1187.285156	0.546775
0.000000	0.000000	1184.615234	0.544108
0.000000	0.000000	1181.945313	0.538341
0.000000	0.000000	1179.275391	0.530423
0.000000	0.000000	1176.603516	0.529495
0.000000	0.000000	1173.929688	0.540608
0.000000	0.000000	1171.255859	0.539438
0.000000	0.000000	1168.582031	0.541967
0.000000	0.000000	1165.908203	0.543026
0.000000	0.000000	1163.230469	0.543817
0.000000	0.000000	1160.554688	0.540762
0.000000	0.000000	1157.876953	0.527452
0.000000	0.000000	1155.199219	0.524262
0.000000	0.000000	1152.519531	0.529731
0.000000	0.000000	1149.839844	0.530128
0.000000	0.000000	1147.158203	0.531616
0.000000	0.000000	1144.476563	0.531773
0.000000	0.000000	1141.792969	0.525881
0.000000	0.000000	1139.109375	0.519124
0.000000	0.000000	1136.425781	0.507324
0.000000	0.000000	1133.740234	0.506719
0.000000	0.000000	1131.054688	0.505842
0.000000	0.000000	1128.367188	0.510109
0.000000	0.000000	1125.679688	0.508746
0.000000	0.000000	1122.990234	0.507086
0.000000	0.000000	1120.300781	0.507079
0.000000	0.000000	1117.609375	0.503338
0.000000	0.000000	1114.917969	0.503023
0.000000	0.000000	1112.226563	0.503974
0.000000	0.000000	1109.533203	0.501687
0.000000	0.000000	1106.839844	0.506918
0.000000	0.000000	1104.144531	0.511394
0.000000	0.000000	1101.449219	0.509726
0.000000	0.000000	1098.753906	0.516529
0.000000	0.000000	1096.056641	0.511609
0.000000	0.000000	1093.357422	0.513109
0.000000	0.000000	1090.658203	0.513247
0.000000	0.000000	1087.958984	0.51183
0.000000	0.000000	1085.257813	0.516854
0.000000	0.000000	1082.556641	0.519136
0.000000	0.000000	1079.853516	0.51411
0.000000	0.000000	1077.150391	0.514299
0.000000	0.000000	1074.447266	0.51571
0.000000	0.000000	1071.742188	0.518906
0.000000	0.000000	1069.035156	0.516256
0.000000	0.000000	1066.330078	0.516214
0.000000	0.000000	1063.621094	0.52178
0.000000	0.000000	1060.914063	0.520588
0.000000	0.000000	1058.203125	0.515315
0.000000	0.000000	1055.494141	0.516848
0.000000	0.000000	1052.783203	0.520374
0.000000	0.000000	1050.070313	0.51828
0.000000	0.000000	1047.357422	0.515384
0.000000	0.000000	1044.644531	0.514612
0.000000	0.000000	1041.929688	0.518101
0.000000	0.000000	1039.214844	0.51678
0.000000	0.000000	1036.498047	0.514215
0.000000	0.000000	1033.78125	0.515505
0.000000	0.000000	1031.0625	0.514979
0.000000	0.000000	1028.34375	0.512911
0.000000	0.000000	1025.625	0.511194
0.000000	0.000000	1022.904297	0.506082
0.000000	0.000000	1020.181641	0.505664
0.000000	0.000000	1017.458984	0.506769
0.000000	0.000000	1014.736328	0.507661
0.000000	0.000000	1012.011719	0.513709
0.000000	0.000000	1009.287109	0.517974
0.000000	0.000000	1006.560547	0.522555
0.000000	0.000000	1003.833984	0.530724
0.000000	0.000000	1001.107422	0.53591
0.000000	0.000000	998.378906	0.542125
0.000000	0.000000	995.648438	0.552177
0.000000	0.000000	992.917969	0.562688
0.000000	0.000000	990.1875	0.586951
0.000000	0.000000	987.455078	0.610311
0.000000	0.000000	984.722656	0.643951
0.000000	0.000000	981.988281	0.681102
0.000000	0.000000	979.253906	0.716036
0.000000	0.000000	976.519531	0.743298
0.000000	0.000000	973.783203	0.768461
0.000000	0.000000	971.044922	0.781275
0.000000	0.000000	968.306641	0.796591
0.000000	0.000000	965.568359	0.807873
0.000000	0.000000	962.828125	0.818438
0.000000	0.000000	960.087891	0.823077
0.000000	0.000000	957.345703	0.828505
0.000000	0.000000	954.603516	0.8339
0.000000	0.000000	951.859375	0.833557
0.000000	0.000000	949.115234	0.828361
0.000000	0.000000	946.371094	0.818188
0.000000	0.000000	943.625	0.807467
0.000000	0.000000	940.876953	0.785433
0.000000	0.000000	938.128906	0.76317
0.000000	0.000000	935.380859	0.733572
0.000000	0.000000	932.630859	0.710629
0.000000	0.000000	929.880859	0.680137
0.000000	0.000000	927.128906	0.660076
0.000000	0.000000	924.376953	0.640496
0.000000	0.000000	921.623047	0.631587
0.000000	0.000000	918.869141	0.621121
0.000000	0.000000	916.115234	0.620646
0.000000	0.000000	913.359375	0.612886
0.000000	0.000000	910.601563	0.609733
0.000000	0.000000	907.84375	0.600191
0.000000	0.000000	905.085938	0.593912
0.000000	0.000000	902.326172	0.584559
0.000000	0.000000	899.566406	0.578033
0.000000	0.000000	896.804688	0.569487
0.000000	0.000000	894.042969	0.572914
0.000000	0.000000	891.279297	0.569605
0.000000	0.000000	888.515625	0.572059
0.000000	0.000000	885.75	0.572271
0.000000	0.000000	882.984375	0.571083
0.000000	0.000000	880.21875	0.567407
0.000000	0.000000	877.451172	0.560563
0.000000	0.000000	874.683594	0.556137
0.000000	0.000000	871.914063	0.557609
0.000000	0.000000	869.142578	0.552909
0.000000	0.000000	866.373047	0.552257
0.000000	0.000000	863.599609	0.544411
0.000000	0.000000	860.828125	0.538896
0.000000	0.000000	858.052734	0.537519
0.000000	0.000000	855.279297	0.532368
0.000000	0.000000	852.503906	0.534664
0.000000	0.000000	849.726563	0.539307
0.000000	0.000000	846.949219	0.543203
0.000000	0.000000	844.171875	0.542359
0.000000	0.000000	841.392578	0.537453
0.000000	0.000000	838.611328	0.543737
0.000000	0.000000	835.832031	0.547147
0.000000	0.000000	833.048828	0.547953
0.000000	0.000000	830.265625	0.55033
0.000000	0.000000	827.482422	0.552507
0.000000	0.000000	824.697266	0.552161
0.000000	0.000000	821.912109	0.548417
0.000000	0.000000	819.126953	0.544295
0.000000	0.000000	816.339844	0.54096
0.000000	0.000000	813.550781	0.533337
0.000000	0.000000	810.761719	0.533094
0.000000	0.000000	807.970703	0.528162
0.000000	0.000000	805.181641	0.526035
0.000000	0.000000	802.388672	0.529795
0.000000	0.000000	799.595703	0.530386
0.000000	0.000000	796.802734	0.529249
0.000000	0.000000	794.007813	0.523624
0.000000	0.000000	791.212891	0.519414
0.000000	0.000000	788.416016	0.521106
0.000000	0.000000	785.619141	0.522851
0.000000	0.000000	782.820313	0.520701
0.000000	0.000000	780.021484	0.523255
0.000000	0.000000	777.220703	0.525124
0.000000	0.000000	774.419922	0.521959
0.000000	0.000000	771.619141	0.51558
0.000000	0.000000	768.816406	0.508266
0.000000	0.000000	766.011719	0.502902
0.000000	0.000000	763.207031	0.501035
0.000000	0.000000	760.402344	0.491316
0.000000	0.000000	757.595703	0.490134
0.000000	0.000000	754.787109	0.49903
0.000000	0.000000	751.980469	0.503946
0.000000	0.000000	749.169922	0.506091
0.000000	0.000000	746.359375	0.506684
0.000000	0.000000	743.548828	0.507583
0.000000	0.000000	740.738281	0.501514
0.000000	0.000000	737.923828	0.495045
0.000000	0.000000	735.111328	0.490379
0.000000	0.000000	732.294922	0.495621
0.000000	0.000000	729.480469	0.494055
0.000000	0.000000	726.664063	0.492487
0.000000	0.000000	723.845703	0.493581
0.000000	0.000000	721.027344	0.500535
0.000000	0.000000	718.208984	0.50405
0.000000	0.000000	715.388672	0.513942
0.000000	0.000000	712.566406	0.51571
0.000000	0.000000	709.744141	0.517732
0.000000	0.000000	706.921875	0.512989
0.000000	0.000000	704.097656	0.506172
0.000000	0.000000	701.273438	0.501039
0.000000	0.000000	698.447266	0.50138
0.000000	0.000000	695.621094	0.503772
0.000000	0.000000	692.792969	0.513826
0.000000	0.000000	689.964844	0.519325
0.000000	0.000000	687.134766	0.518784
0.000000	0.000000	684.304688	0.527668
0.000000	0.000000	681.472656	0.525187
0.000000	0.000000	678.640625	0.52845
0.000000	0.000000	675.806641	0.532366
0.000000	0.000000	672.972656	0.532598
0.000000	0.000000	670.138672	0.538798
0.000000	0.000000	667.302734	0.543515
0.000000	0.000000	664.464844	0.544347
0.000000	0.000000	661.626953	0.548065
0.000000	0.000000	658.789063	0.545893
0.000000	0.000000	655.949219	0.549584
0.000000	0.000000	653.107422	0.550265
0.000000	0.000000	650.265625	0.544087
0.000000	0.000000	647.423828	0.543339
0.000000	0.000000	644.580078	0.545818
0.000000	0.000000	641.736328	0.537458
0.000000	0.000000	638.890625	0.522757
0.000000	0.000000	636.044922	0.514837
0.000000	0.000000	633.197266	0.508
0.000000	0.000000	630.347656	0.505227
0.000000	0.000000	627.5	0.508209
0.000000	0.000000	624.648438	0.514533
0.000000	0.000000	621.798828	0.520957
0.000000	0.000000	618.947266	0.504581
0.000000	0.000000	616.09375	0.473953
0.000000	0.000000	613.240234	0.438601
0.000000	0.000000	610.384766	0.404179
0.000000	0.000000	607.529297	0.382271
0.000000	0.000000	604.671875	0.371253
0.000000	0.000000	601.814453	0.371756
0.000000	0.000000	598.957031	0.391258
0.000000	0.000000	596.097656	0.411397
0.000000	0.000000	593.236328	0.424877
0.000000	0.000000	590.375	0.447388
0.000000	0.000000	587.513672	0.47167
0.000000	0.000000	584.650391	0.497972
0.000000	0.000000	581.785156	0.513916
0.000000	0.000000	578.919922	0.526941
0.000000	0.000000	576.054688	0.548626
0.000000	0.000000	573.1875	0.560342
0.000000	0.000000	570.318359	0.561
0.000000	0.000000	567.451172	0.573805
0.000000	0.000000	564.580078	0.583245
0.000000	0.000000	561.708984	0.59593
0.000000	0.000000	558.837891	0.609371
0.000000	0.000000	555.964844	0.625641
0.000000	0.000000	553.091797	0.650793
0.000000	0.000000	550.216797	0.661267
0.000000	0.000000	547.341797	0.671444
0.000000	0.000000	544.464844	0.690794
0.000000	0.000000	541.587891	0.707166
0.000000	0.000000	538.708984	0.728898
0.000000	0.000000	535.830078	0.754395
0.000000	0.000000	532.949219	0.778274
0.000000	0.000000	530.068359	0.806679
0.000000	0.000000	527.185547	0.827405
0.000000	0.000000	524.302734	0.857212
0.000000	0.000000	521.417969	0.896661
0.000000	0.000000	518.533203	0.943528
0.000000	0.000000	515.646484	0.987441
0.000000	0.000000	512.759766	1
0.000000	0.000000	509.871094	0.953871
0.000000	0.000000	506.982422	0.844869
0.000000	0.000000	504.09375	0.67448
0.000000	0.000000	501.201172	0.478171
0.000000	0.000000	498.310547	0.290979
0.000000	0.000000	495.417969	0.143534
0.000000	0.000000	492.523438	0.052388
0.000000	0.000000	489.628906	0.011164
0.000000	0.000000	486.732422	0
0.000000	0.000000	483.835938	0.00748
0.000000	0.000000	480.939453	0.019229
0.000000	0.000000	478.041016	0.033649
0.000000	0.000000	475.140625	0.046727
0.000000	0.000000	472.240234	0.051238
0.000000	0.000000	469.339844	0.054333
0.000000	0.000000	466.4375	0.05538
0.000000	0.000000	463.533203	0.056915
0.000000	0.000000	460.628906	0.063971
0.000000	0.000000	457.722656	0.072868
0.000000	0.000000	454.816406	0.084543
0.000000	0.000000	451.910156	0.100754
0.000000	0.000000	449.001953	0.111345
0.000000	0.000000	446.091797	0.120628
0.000000	0.000000	443.181641	0.129998
0.000000	0.000000	440.271484	0.139698
0.000000	0.000000	437.359375	0.153959
0.000000	0.000000	434.445313	0.172607
0.000000	0.000000	431.53125	0.19278
0.000000	0.000000	428.617188	0.204849
0.000000	0.000000	425.701172	0.214189
0.000000	0.000000	422.785156	0.223022
0.000000	0.000000	419.867188	0.230662
0.000000	0.000000	416.947266	0.239197
0.000000	0.000000	414.027344	0.246552
0.000000	0.000000	411.107422	0.261981
0.000000	0.000000	408.185547	0.268193
0.000000	0.000000	405.261719	0.270099
0.000000	0.000000	402.337891	0.271503
0.000000	0.000000	399.414063	0.273616
0.000000	0.000000	396.488281	0.272132
0.000000	0.000000	393.560547	0.275364
0.000000	0.000000	390.634766	0.27953
0.000000	0.000000	387.705078	0.29517
0.000000	0.000000	384.775391	0.302891
0.000000	0.000000	381.845703	0.315396
0.000000	0.000000	378.914063	0.319094
0.000000	0.000000	375.980469	0.323516
0.000000	0.000000	373.046875	0.324271
0.000000	0.000000	370.113281	0.329551
0.000000	0.000000	367.177734	0.334548
0.000000	0.000000	364.240234	0.346623
0.000000	0.000000	361.302734	0.349326
0.000000	0.000000	358.365234	0.347905
0.000000	0.000000	355.425781	0.353912
0.000000	0.000000	352.486328	0.360155
0.000000	0.000000	349.544922	0.369688
0.000000	0.000000	346.601563	0.379144
0.000000	0.000000	343.658203	0.384048
0.000000	0.000000	340.714844	0.38903
0.000000	0.000000	337.769531	0.38998
0.000000	0.000000	334.822266	0.387894
0.000000	0.000000	331.875	0.393543
0.000000	0.000000	328.927734	0.39553
0.000000	0.000000	325.978516	0.401118
0.000000	0.000000	323.027344	0.409636
0.000000	0.000000	320.076172	0.417954
0.000000	0.000000	317.125	0.425722
0.000000	0.000000	314.171875	0.437885
0.000000	0.000000	311.216797	0.446997
0.000000	0.000000	308.261719	0.458627
0.000000	0.000000	305.304688	0.465367
0.000000	0.000000	302.347656	0.462756
0.000000	0.000000	299.390625	0.459411
0.000000	0.000000	296.431641	0.450857
0.000000	0.000000	293.470703	0.441157
0.000000	0.000000	290.509766	0.432986
0.000000	0.000000	287.546875	0.421145
0.000000	0.000000	284.583984	0.416636
0.000000	0.000000	281.621094	0.411793
0.000000	0.000000	278.65625	0.404824
0.000000	0.000000	275.689453	0.401925
0.000000	0.000000	272.722656	0.401913
0.000000	0.000000	269.753906	0.40693
0.000000	0.000000	266.785156	0.410577
0.000000	0.000000	263.814453	0.405309
0.000000	0.000000	260.84375	0.404908
0.000000	0.000000	257.873047	0.407679
0.000000	0.000000	254.898438	0.407369
0.000000	0.000000	251.925781	0.406897
0.000000	0.000000	248.949219	0.400495
0.000000	0.000000	245.974609	0.398349
0.000000	0.000000	242.996094	0.392783
0.000000	0.000000	240.019531	0.388206
0.000000	0.000000	237.039063	0.390391
0.000000	0.000000	234.060547	0.398742
0.000000	0.000000	231.078125	0.40051
0.000000	0.000000	228.097656	0.400215
0.000000	0.000000	225.113281	0.389093
0.000000	0.000000	222.128906	0.380864
0.000000	0.000000	219.144531	0.370714
0.000000	0.000000	216.158203	0.364427
0.000000	0.000000	213.171875	0.362915
0.000000	0.000000	210.183594	0.362792
0.000000	0.000000	207.195313	0.363287
0.000000	0.000000	204.205078	0.366683
0.000000	0.000000	201.212891	0.365294
0.000000	0.000000	198.220703	0.368341
0.000000	0.000000	195.228516	0.375467
0.000000	0.000000	192.234375	0.382686
0.000000	0.000000	189.238281	0.38834
0.000000	0.000000	186.242188	0.392606
0.000000	0.000000	183.246094	0.396846
0.000000	0.000000	180.248047	0.400661
0.000000	0.000000	177.248047	0.400989
0.000000	0.000000	174.248047	0.406175
0.000000	0.000000	171.248047	0.411701
0.000000	0.000000	168.246094	0.415135
0.000000	0.000000	165.242188	0.415538
0.000000	0.000000	162.238281	0.41213
0.000000	0.000000	159.232422	0.406662
0.000000	0.000000	156.226563	0.407493
0.000000	0.000000	153.21875	0.405977
0.000000	0.000000	150.210938	0.412158
0.000000	0.000000	147.203125	0.414332
0.000000	0.000000	144.191406	0.413509
0.000000	0.000000	141.181641	0.413499
0.000000	0.000000	138.167969	0.408662
0.000000	0.000000	135.15625	0.405817
0.000000	0.000000	132.140625	0.405509
0.000000	0.000000	129.125	0.402175